 Al Density=2.6989 Thickness=2.00000E-02 microns
 Photon Energy (eV), Transmission
    100.00      0.55904    
    119.00      0.53315    
    138.00      0.55767    
    157.00      0.59828    
    176.00      0.63800    
    195.00      0.69555    
    214.00      0.74512    
    233.00      0.78210    
    252.00      0.80971    
    271.00      0.83369    
    290.00      0.85784    
    309.00      0.87750    
    328.00      0.89366    
    347.00      0.90705    
    366.00      0.91789    
    385.00      0.92646    
    404.00      0.93382    
    423.00      0.94017    
    442.00      0.94584    
    461.00      0.95107    
    480.00      0.95562    
    499.00      0.95961    
    518.00      0.96321    
    537.00      0.96638    
    556.00      0.96918    
    575.00      0.97174    
    594.00      0.97404    
    613.00      0.97610    
    632.00      0.97796    
    651.00      0.97968    
    670.00      0.98125    
    689.00      0.98256    
    708.00      0.98371    
    727.00      0.98481    
    746.00      0.98582    
    765.00      0.98674    
    784.00      0.98759    
    803.00      0.98837    
    822.00      0.98908    
    841.00      0.98974    
    860.00      0.99034    
    879.00      0.99090    
    898.00      0.99141    
    917.00      0.99189    
    936.00      0.99233    
    955.00      0.99274    
    974.00      0.99312    
    993.00      0.99348    
    1012.0      0.99381    
    1031.0      0.99410    
    1050.0      0.99439    
    1069.0      0.99466    
    1088.0      0.99491    
    1107.0      0.99515    
    1126.0      0.99537    
    1145.0      0.99558    
    1164.0      0.99577    
    1183.0      0.99596    
    1202.0      0.99613    
    1221.0      0.99630    
    1240.0      0.99645    
    1259.0      0.99659    
    1278.0      0.99673    
    1297.0      0.99686    
    1316.0      0.99698    
    1335.0      0.99709    
    1354.0      0.99720    
    1373.0      0.99730    
    1392.0      0.99740    
    1411.0      0.99750    
    1430.0      0.99758    
    1449.0      0.99767    
    1468.0      0.99775    
    1487.0      0.99783    
    1506.0      0.99791    
    1525.0      0.99798    
    1544.0      0.99805    
    1563.0      0.97787    
    1582.0      0.97849    
    1601.0      0.97908    
    1620.0      0.97965    
    1639.0      0.98020    
    1658.0      0.98073    
    1677.0      0.98123    
    1696.0      0.98172    
    1715.0      0.98219    
    1734.0      0.98265    
    1753.0      0.98310    
    1772.0      0.98354    
    1791.0      0.98397    
    1810.0      0.98438    
    1829.0      0.98478    
    1848.0      0.98516    
    1867.0      0.98553    
    1886.0      0.98589    
    1905.0      0.98623    
    1924.0      0.98656    
    1943.0      0.98689    
    1962.0      0.98720    
    1981.0      0.98750    
    2000.0      0.98779    