 Al Density=2.6989 Thickness=2.50000E-02 microns
 Photon Energy (eV), Transmission
    100.00      0.48340    
    119.00      0.45557    
    138.00      0.48191    
    157.00      0.52618    
    176.00      0.57020    
    195.00      0.63519    
    214.00      0.69228    
    233.00      0.73550    
    252.00      0.76809    
    271.00      0.79663    
    290.00      0.82557    
    309.00      0.84930    
    328.00      0.86889    
    347.00      0.88520    
    366.00      0.89843    
    385.00      0.90894    
    404.00      0.91797    
    423.00      0.92578    
    442.00      0.93276    
    461.00      0.93921    
    480.00      0.94483    
    499.00      0.94977    
    518.00      0.95422    
    537.00      0.95815    
    556.00      0.96163    
    575.00      0.96480    
    594.00      0.96766    
    613.00      0.97022    
    632.00      0.97252    
    651.00      0.97466    
    670.00      0.97662    
    689.00      0.97824    
    708.00      0.97968    
    727.00      0.98105    
    746.00      0.98230    
    765.00      0.98345    
    784.00      0.98451    
    803.00      0.98548    
    822.00      0.98637    
    841.00      0.98719    
    860.00      0.98794    
    879.00      0.98864    
    898.00      0.98928    
    917.00      0.98987    
    936.00      0.99043    
    955.00      0.99094    
    974.00      0.99141    
    993.00      0.99185    
    1012.0      0.99226    
    1031.0      0.99264    
    1050.0      0.99299    
    1069.0      0.99333    
    1088.0      0.99364    
    1107.0      0.99394    
    1126.0      0.99422    
    1145.0      0.99448    
    1164.0      0.99472    
    1183.0      0.99495    
    1202.0      0.99517    
    1221.0      0.99537    
    1240.0      0.99556    
    1259.0      0.99575    
    1278.0      0.99591    
    1297.0      0.99607    
    1316.0      0.99622    
    1335.0      0.99637    
    1354.0      0.99650    
    1373.0      0.99663    
    1392.0      0.99675    
    1411.0      0.99687    
    1430.0      0.99698    
    1449.0      0.99709    
    1468.0      0.99719    
    1487.0      0.99729    
    1506.0      0.99738    
    1525.0      0.99748    
    1544.0      0.99757    
    1563.0      0.97242    
    1582.0      0.97319    
    1601.0      0.97392    
    1620.0      0.97463    
    1639.0      0.97531    
    1658.0      0.97597    
    1677.0      0.97660    
    1696.0      0.97720    
    1715.0      0.97779    
    1734.0      0.97836    
    1753.0      0.97892    
    1772.0      0.97947    
    1791.0      0.98000    
    1810.0      0.98051    
    1829.0      0.98101    
    1848.0      0.98148    
    1867.0      0.98194    
    1886.0      0.98239    
    1905.0      0.98282    
    1924.0      0.98323    
    1943.0      0.98363    
    1962.0      0.98402    
    1981.0      0.98440    
    2000.0      0.98476    